Hp[ft]	ACMass[kg]	CAS[kt]	TAS[kt]	M[-]	ROCD[ft/min]	Grad[deg]	FuelFlow[kg/s]	Fuel[kg]	Time[s]	Distance[NM]	Thr[N]	D[N]	fM[-]
10000	65300	250	288.7023134	0.452275114	-1532.218816	-3	0.09260353994	0.09260353994	0	0	6243.421317	43463.68775	0.9016752257
9974.46302	65299.9074	250	288.5934003	0.4520618779	-1531.640786	-3	0.02245293514	0.1150564751	1	0.08019508706	1513.920392	43464.60108	0.8
9948.935673	65299.88494	249.78049	288.2349096	0.4514577926	-1529.738182	-3	0.02195242714	0.1370089022	2	0.1603599205	1480.564167	43431.23043	0.8
9923.440037	65299.86299	249.5609149	287.8766922	0.4508543059	-1527.837028	-3	0.02145332423	0.1584622265	3	0.2404251732	1447.284802	43397.93696	0.8
9897.976086	65299.84154	249.3412745	287.5187474	0.4502514163	-1525.937321	-3	0.02095563054	0.179417857	4	0.320390921	1414.082658	43364.72103	0.8
9872.543798	65299.82058	249.1215689	287.1610749	0.4496491227	-1524.039059	-3	0.02045935023	0.1998772072	5	0.4002572397	1380.958099	43331.58301	0.8
9847.143147	65299.80012	248.9017982	286.8036739	0.4490474236	-1522.142239	-3	0.01996448744	0.2198416947	6	0.480024205	1347.911485	43298.52325	0.8
9821.774109	65299.78016	248.6819624	286.4465441	0.4484463179	-1520.246857	-3	0.01947104635	0.239312741	7	0.5596918922	1314.943182	43265.54213	0.8
9796.436662	65299.76069	248.4620614	286.0896848	0.4478458041	-1518.352911	-3	0.01897903115	0.2582917722	8	0.6392603766	1282.053554	43232.63999	0.8
9771.13078	65299.74171	248.2420954	285.7330955	0.4472458811	-1516.460398	-3	0.01848844602	0.2767802182	9	0.7187297335	1249.242966	43199.81721	0.8
9745.85644	65299.72322	248.0220643	285.3767756	0.4466465475	-1514.569316	-3	0.01799929517	0.2947795134	10	0.7981000378	1216.511785	43167.07415	0.8
9720.613618	65299.70522	247.8019681	285.0207246	0.446047802	-1512.67966	-3	0.0175115828	0.3122910962	11	0.8773713644	1183.860378	43134.41118	0.8
9695.40229	65299.68771	247.581807	284.664942	0.4454496433	-1510.791428	-3	0.01702531315	0.3293164093	12	0.9565437879	1151.289115	43101.82867	0.8
9670.222433	65299.67068	247.3615808	284.3094273	0.4448520702	-1508.904618	-3	0.01654049044	0.3458568998	13	1.035617383	1118.798364	43069.32698	0.8
9645.074023	65299.65414	247.1412898	283.9541798	0.4442550813	-1507.019227	-3	0.01605711893	0.3619140187	14	1.114592224	1086.388497	43036.90648	0.8
9619.957036	65299.63809	246.9209337	283.5991991	0.4436586754	-1505.135251	-3	0.01557520286	0.3774892215	15	1.193468385	1054.059884	43004.56756	0.8
9594.871448	65299.62251	246.7005128	283.2444846	0.4430628512	-1503.252688	-3	0.01509474651	0.3925839681	16	1.27224594	1021.812898	42972.31056	0.8
9569.817237	65299.60742	246.4800269	282.8900357	0.4424676075	-1501.371536	-3	0.01461575415	0.4071997222	17	1.350924964	989.6479124	42940.13588	0.8
9544.794378	65299.5928	246.2594762	282.5358521	0.4418729429	-1499.49179	-3	0.01413823008	0.4213379523	18	1.429505529	957.5653019	42908.04388	0.8
9519.802848	65299.57866	246.0388607	282.181933	0.4412788562	-1497.613449	-3	0.01366217859	0.4350001309	19	1.50798771	925.5654418	42876.03494	0.8
9494.842624	65299.565	245.8181803	281.8282781	0.4406853462	-1495.736509	-3	0.013187604	0.4481877349	20	1.586371581	893.6487088	42844.10943	0.8
9469.913682	65299.55181	245.5974351	281.4748866	0.4400924115	-1493.860969	-3	0.01271451064	0.4609022455	21	1.664657213	861.8154804	42812.26773	0.8
9445.015999	65299.5391	245.3766252	281.1217583	0.4395000509	-1491.986824	-3	0.01224290283	0.4731451483	22	1.742844682	830.0661352	42780.51021	0.8
9420.149552	65299.52685	245.1557506	280.7688924	0.4389082632	-1490.114072	-3	0.01177278494	0.4849179333	23	1.820934059	798.401053	42748.83727	0.8
9395.314318	65299.51508	244.9348112	280.4162884	0.4383170471	-1488.242711	-3	0.01130416132	0.4962220946	24	1.898925418	766.8206146	42717.24927	0.8
9370.510273	65299.50378	244.7138071	280.063946	0.4377264014	-1486.372737	-3	0.01083703634	0.5070591309	25	1.976818832	735.3252016	42685.74659	0.8
9345.737394	65299.49294	244.4927384	279.7118644	0.4371363247	-1484.504148	-3	0.01037141439	0.5174305453	26	2.054614372	703.9151971	42654.32962	0.8
9320.995658	65299.48257	244.2716051	279.3600432	0.436546816	-1482.636941	-3	0.009907299869	0.5273378452	27	2.132312112	672.590985	42622.99875	0.8
9296.285042	65299.47266	244.0504071	279.008482	0.4359578738	-1480.771113	-3	0.009444697184	0.5367825424	28	2.209912124	641.3529505	42591.75435	0.8
9271.605524	65299.46322	243.8291446	278.65718	0.4353694971	-1478.906661	-3	0.008983610757	0.5457661531	29	2.28741448	610.2014797	42560.59681	0.8
9246.957079	65299.45423	243.6078175	278.3061369	0.4347816845	-1477.043584	-3	0.008524045026	0.5542901982	30	2.364819253	579.1369601	42529.52652	0.8
9222.339686	65299.44571	243.3864258	277.9553521	0.4341944348	-1475.181877	-3	0.008066004437	0.5623562026	31	2.442126513	548.1597799	42498.54386	0.8
9197.753322	65299.43764	243.1649697	277.6048251	0.4336077469	-1473.321538	-3	0.007609493452	0.5699656961	32	2.519336333	517.2703289	42467.64923	0.8
9173.197963	65299.43003	242.9434491	277.2545553	0.4330216193	-1471.462565	-3	0.007154516545	0.5771202126	33	2.596448784	486.4689978	42436.84301	0.8
9148.673587	65299.42288	242.721864	276.9045423	0.4324360511	-1469.604954	-3	0.006701078204	0.5838212908	34	2.673463938	455.7561784	42406.1256	0.8
9124.180171	65299.41618	242.5002145	276.5547856	0.4318510408	-1467.748703	-3	0.006249182927	0.5900704737	35	2.750381867	425.1322638	42375.49738	0.8
9099.717692	65299.40993	242.2785006	276.2052846	0.4312665874	-1465.89381	-3	0.005798835231	0.595869309	36	2.827202641	394.5976481	42344.95875	0.8
9075.286129	65299.40413	242.0567223	275.8560387	0.4306826896	-1464.040271	-3	0.005350039641	0.6012193486	37	2.903926331	364.1527269	42314.5101	0.8
9050.885458	65299.39878	241.8348797	275.5070476	0.4300993461	-1462.188083	-3	0.004902800699	0.6061221493	38	2.980553008	333.7978966	42284.15183	0.8
9026.515656	65299.39388	241.6129728	275.1583107	0.4295165558	-1460.337245	-3	0.004457122959	0.6105792723	39	3.057082744	303.5335551	42253.88434	0.8
9002.176702	65299.38942	241.3910016	274.8098274	0.4289343175	-1458.487753	-3	0.004013010991	0.6145922833	40	3.133515608	273.3601013	42223.70802	0.8
8977.868573	65299.38541	241.1689662	274.4615973	0.4283526299	-1456.639605	-3	0.003570469375	0.6181627526	41	3.209851671	243.2779354	42193.62328	0.8
8953.591246	65299.38184	240.9468665	274.1136199	0.4277714919	-1454.792797	-3	0.00312950271	0.6212922553	42	3.286091004	213.2874589	42163.63051	0.8
8929.344699	65299.37871	240.7247026	273.7658946	0.4271909023	-1452.947328	-3	0.002690115604	0.6239823709	43	3.362233676	183.3890743	42133.73011	0.8
8905.128911	65299.37602	240.5024745	273.418421	0.4266108598	-1451.103195	-3	0.002252312685	0.6262346836	44	3.438279758	153.5831857	42103.9225	0.8
8880.943857	65299.37377	240.2801823	273.0711985	0.4260313633	-1449.260394	-3	0.00181609859	0.6280507822	45	3.514229319	123.8701982	42074.20806	0.8
8856.789518	65299.37195	240.0578259	272.7242266	0.4254524116	-1447.418923	-3	0.001381477975	0.6294322602	46	3.59008243	94.25051815	42044.58722	0.8
8832.665869	65299.37057	239.8354055	272.3775049	0.4248740035	-1445.57878	-3	0.0009484555071	0.6303807157	47	3.665839159	64.7245533	42015.06036	0.8
8808.572889	65299.36962	239.612921	272.0310328	0.4242961378	-1443.739962	-3	0.0005170358705	0.6308977516	48	3.741499577	35.29271262	41985.62791	0.8
8784.510556	65299.3691	239.3903724	271.6848098	0.4237188133	-1441.902466	-3	8.722376345e-05	0.6309849753	49	3.817063753	5.955406372	41956.29028	0.8
8760.478849	65299.36902	239.1677599	271.3388354	0.4231420289	-1440.066289	-3	-0.0003409761005	0.6306439992	50	3.892531756	-23.28695386	41927.04786	0.8
8736.477744	65299.36936	238.9450834	270.9931092	0.4225657833	-1438.231429	-3	-0.0007675589928	0.6298764402	51	3.967903655	-52.43395519	41897.90108	0.8
8712.50722	65299.37012	238.7223429	270.6476306	0.4219900755	-1436.397884	-3	-0.001192520169	0.6286839201	52	4.043179518	-81.48518342	41868.85034	0.8
8688.567255	65299.37132	238.4995385	270.3023991	0.4214149042	-1434.56565	-3	-0.001615854871	0.6270680652	53	4.118359416	-110.440223	41839.89607	0.8
8664.657828	65299.37293	238.2766702	269.9574142	0.4208402683	-1432.734725	-3	-0.002037558323	0.6250305069	54	4.193443415	-139.298657	41811.03867	0.8
8640.778916	65299.37497	238.0537381	269.6126755	0.4202661665	-1430.905106	-3	-0.002457625734	0.6225728812	55	4.268431586	-168.0600673	41782.27857	0.8
8616.930497	65299.37743	237.8307421	269.2681825	0.4196925978	-1429.076791	-3	-0.002876052298	0.6196968289	56	4.343323996	-196.7240342	41753.61618	0.8
8593.112551	65299.3803	237.6076823	268.9239345	0.419119561	-1427.249778	-3	-0.003292833193	0.6164039957	57	4.418120713	-225.2901368	41725.05193	0.8
8569.325054	65299.3836	237.3845588	268.5799313	0.4185470549	-1425.424062	-3	-0.00370796358	0.6126960321	58	4.492821806	-253.7579526	41696.58623	0.8
8545.567987	65299.3873	237.1613715	268.2361722	0.4179750784	-1423.599643	-3	-0.004121438605	0.6085745935	59	4.567427343	-282.127058	41668.2195	0.8
8521.841326	65299.39143	236.9381205	267.8926568	0.4174036303	-1421.776516	-3	-0.004533253396	0.6040413401	60	4.64193739	-310.3970278	41639.95218	0.8
8498.145051	65299.39596	236.7148058	267.5493845	0.4168327095	-1419.954681	-3	-0.004943403066	0.599097937	61	4.716352017	-338.5674354	41611.78469	0.8
8474.479139	65299.4009	236.4914275	267.206355	0.4162623148	-1418.134133	-3	-0.005351882712	0.5937460543	62	4.790671291	-366.6378528	41583.71745	0.8
8450.843571	65299.40625	236.2679855	266.8635677	0.415692445	-1416.314871	-3	-0.005758687411	0.5879873669	63	4.864895278	-394.6078505	41555.75089	0.8
8427.238323	65299.41201	236.04448	266.5210221	0.4151230991	-1414.496891	-3	-0.006163812228	0.5818235547	64	4.939024047	-422.4769978	41527.88544	0.8
8403.663375	65299.41818	235.8209109	266.1787177	0.4145542759	-1412.680192	-3	-0.006567252206	0.5752563025	65	5.013057664	-450.2448622	41500.12153	0.8
8380.118705	65299.42474	235.5972782	265.8366541	0.4139859743	-1410.864771	-3	-0.006969002374	0.5682873001	66	5.086996197	-477.9110099	41472.4596	0.8
8356.604292	65299.43171	235.3735821	265.4948307	0.413418193	-1409.050625	-3	-0.007369057743	0.5609182423	67	5.160839712	-505.4750056	41444.90009	0.8
8333.120115	65299.43908	235.1498224	265.1532471	0.4128509311	-1407.237751	-3	-0.007767413307	0.553150829	68	5.234588276	-532.9364126	41417.44341	0.8
8309.666152	65299.44685	234.9259994	264.8119028	0.4122841874	-1405.426148	-3	-0.008164064041	0.544986765	69	5.308241956	-560.2947925	41390.09002	0.8
8286.242383	65299.45501	234.7021129	264.4707974	0.4117179606	-1403.615812	-3	-0.008559004903	0.5364277601	70	5.381800818	-587.5497056	41362.84035	0.8
8262.848786	65299.46357	234.4781631	264.1299303	0.4111522498	-1401.806741	-3	-0.008952230833	0.5274755293	71	5.455264928	-614.7007105	41335.69485	0.8
8239.485341	65299.47252	234.2541499	263.789301	0.4105870538	-1399.998932	-3	-0.009343736755	0.5181317925	72	5.528634353	-641.7473643	41308.65395	0.8
8216.152025	65299.48187	234.0300734	263.4489092	0.4100223715	-1398.192383	-3	-0.009733517572	0.5083982749	73	5.601909159	-668.6892226	41281.71809	0.8
8192.848819	65299.4916	233.8059336	263.1087542	0.4094582018	-1396.387092	-3	-0.01012156817	0.4982767068	74	5.675089412	-695.5258394	41254.88773	0.8
8169.5757	65299.50172	233.5817305	262.7688357	0.4088945435	-1394.583055	-3	-0.01050788342	0.4877688233	75	5.748175177	-722.2567673	41228.1633	0.8
8146.332649	65299.51223	233.3574643	262.4291531	0.4083313955	-1392.780271	-3	-0.01089245816	0.4768763652	76	5.82116652	-748.881557	41201.54526	0.8
8123.119645	65299.52312	233.1331348	262.089706	0.4077687568	-1390.978736	-3	-0.01127528723	0.465601078	77	5.894063507	-775.3997578	41175.03406	0.8
8099.936666	65299.5344	232.9087422	261.7504939	0.4072066262	-1389.178449	-3	-0.01165636544	0.4539447125	78	5.966866203	-801.8109173	41148.63014	0.8
8076.783692	65299.54606	232.6842865	261.4115164	0.4066450026	-1387.379406	-3	-0.01203568758	0.4419090249	79	6.039574673	-828.1145817	41122.33397	0.8
8053.660702	65299.55809	232.4597677	261.0727729	0.406083885	-1385.581606	-3	-0.01241324843	0.4294957765	80	6.112188984	-854.3102953	41096.14599	0.8
8030.567675	65299.5705	232.2351858	260.734263	0.4055232721	-1383.785045	-3	-0.01278904273	0.4167067338	81	6.184709198	-880.3976009	41070.06665	0.8
8007.504591	65299.58329	232.0105409	260.3959862	0.404963163	-1381.989721	-3	-0.01316306523	0.4035436685	82	6.257135382	-906.3760396	41044.09643	0.8
7984.471429	65299.59646	231.785833	260.0579421	0.4044035566	-1380.195633	-3	-0.01353531063	0.3900083579	83	6.329467601	-932.2451508	41018.23578	0.8
7961.468168	65299.60999	231.5610621	259.7201301	0.4038444517	-1378.402776	-3	-0.01390577363	0.3761025843	84	6.401705918	-958.0044723	40992.48515	0.8
7938.494789	65299.6239	231.3362283	259.3825499	0.4032858472	-1376.611149	-3	-0.01427444891	0.3618281354	85	6.473850399	-983.6535402	40966.84502	0.8
7915.55127	65299.63817	231.1113316	259.0452009	0.4027277422	-1374.82075	-3	-0.01464133113	0.3471868042	86	6.545901107	-1009.191889	40941.31584	0.8
7892.63759	65299.65281	230.8863721	258.7080827	0.4021701354	-1373.031575	-3	-0.0150064149	0.3321803893	87	6.617858107	-1034.619051	40915.89808	0.8
7869.753731	65299.66782	230.6613497	258.3711949	0.4016130258	-1371.243623	-3	-0.01536969486	0.3168106945	88	6.689721464	-1059.934557	40890.59222	0.8
7846.89967	65299.68319	230.4362645	258.0345369	0.4010564124	-1369.456891	-3	-0.0157311656	0.3010795289	89	6.76149124	-1085.137936	40865.39871	0.8
7824.075389	65299.69892	230.2111165	257.6981082	0.400500294	-1367.671376	-3	-0.01609082168	0.2849887072	90	6.8331675	-1110.228717	40840.31804	0.8
7801.280866	65299.71501	229.9859058	257.3619086	0.3999446696	-1365.887077	-3	-0.01644865765	0.2685400496	91	6.904750308	-1135.206424	40815.35067	0.8
7778.516081	65299.73146	229.7606324	257.0259374	0.3993895381	-1364.103989	-3	-0.01680466806	0.2517353815	92	6.976239727	-1160.070581	40790.49708	0.8
7755.781015	65299.74826	229.5352964	256.6901942	0.3988348985	-1362.322112	-3	-0.01715884741	0.2345765341	93	7.047635821	-1184.82071	40765.75774	0.8
7733.075646	65299.76542	229.3098977	256.3546786	0.3982807496	-1360.541443	-3	-0.01751119019	0.2170653439	94	7.118938652	-1209.456332	40741.13315	0.8
7710.399956	65299.78293	229.0844364	256.01939	0.3977270904	-1358.761979	-3	-0.01786169086	0.199203653	95	7.190148285	-1233.976965	40716.62376	0.8
7687.753923	65299.8008	228.8589126	255.6843281	0.3971739199	-1356.983718	-3	-0.01821034387	0.1809933092	96	7.261264783	-1258.382126	40692.23008	0.8
7665.137527	65299.81901	228.6333262	255.3494924	0.396621237	-1355.206657	-3	-0.01855714364	0.1624361655	97	7.332288207	-1282.671329	40667.95257	0.8
7642.55075	65299.83756	228.4076773	255.0148824	0.3960690407	-1353.430794	-3	-0.01890208458	0.143534081	98	7.403218622	-1306.844087	40643.79174	0.8
7619.99357	65299.85647	228.181966	254.6804977	0.3955173298	-1351.656127	-3	-0.01924516105	0.1242889199	99	7.474056089	-1330.899911	40619.74805	0.8
7597.465968	65299.87571	227.9561922	254.3463378	0.3949661033	-1349.882653	-3	-0.01958636743	0.1047025525	100	7.544800672	-1354.838311	40595.82202	0.8
7574.967924	65299.8953	227.7303561	254.0124023	0.3944153602	-1348.110369	-3	-0.01992569805	0.08477685442	101	7.615452432	-1378.658793	40572.01412	0.8
7552.499417	65299.91522	227.5044576	253.6786907	0.3938650995	-1346.339274	-3	-0.0202631472	0.06451370722	102	7.686011433	-1402.360863	40548.32485	0.8
7530.060429	65299.93549	227.2784967	253.3452026	0.39331532	-1344.569365	-3	-0.02059870919	0.04391499803	103	7.756477736	-1425.944023	40524.75471	0.8
7507.65094	65299.95609	227.0524736	253.0119375	0.3927660208	-1342.80064	-3	-0.02093237828	0.02298261975	104	7.826851403	-1449.407777	40501.30419	0.8
7485.270929	65299.97702	226.8263882	252.6788949	0.3922172008	-1341.033096	-3	-0.0212641487	0.001718471051	105	7.897132497	-1472.751622	40477.97379	0.8
7462.920378	65299.99828	226.6002406	252.3460745	0.391668859	-1339.266731	-3	-0.02159401469	-0.01987554364	106	7.967321079	-1495.975056	40454.76402	0.8
7440.599266	65300.01988	226.3740309	252.0134757	0.3911209943	-1337.501542	-3	-0.02192197042	-0.04179751406	107	8.037417211	-1519.077575	40431.67537	0.8
7418.307573	65300.0418	226.1477589	251.6810982	0.3905736057	-1335.737527	-3	-0.02224801008	-0.06404552414	108	8.107420954	-1542.058672	40408.70836	0.8
7396.045281	65300.06405	225.9214249	251.3489414	0.3900266921	-1333.974684	-3	-0.02257212781	-0.08661765196	109	8.17733237	-1564.917839	40385.86348	0.8
7373.81237	65300.08662	225.6950288	251.017005	0.3894802526	-1332.213011	-3	-0.02289431774	-0.1095119697	110	8.24715152	-1587.654565	40363.14126	0.8
7351.60882	65300.10951	225.4685706	250.6852884	0.3889342861	-1330.452504	-3	-0.02321457395	-0.1327265436	111	8.316878466	-1610.268337	40340.54219	0.8
7329.434611	65300.13273	225.2420504	250.3537913	0.3883887916	-1328.693162	-3	-0.02353289054	-0.1562594342	112	8.386513269	-1632.758641	40318.0668	0.8
7307.289725	65300.15626	225.0154683	250.0225132	0.3878437681	-1326.934983	-3	-0.02384926153	-0.1801086957	113	8.456055988	-1655.124959	40295.7156	0.8
7285.174142	65300.18011	224.7888242	249.6914537	0.3872992145	-1325.177963	-3	-0.02416368097	-0.2042723767	114	8.525506687	-1677.366774	40273.48911	0.8
7263.087843	65300.20427	224.5621182	249.3606123	0.3867551299	-1323.422101	-3	-0.02447614284	-0.2287485195	115	8.594865424	-1699.483563	40251.38785	0.8
7241.030808	65300.22875	224.3353504	249.0299886	0.3862115131	-1321.667394	-3	-0.02478664112	-0.2535351606	116	8.66413226	-1721.474803	40229.41233	0.8
7219.003018	65300.25354	224.1085207	248.6995821	0.3856683633	-1319.91384	-3	-0.02509516977	-0.2786303304	117	8.733307257	-1743.33997	40207.56309	0.8
7197.004454	65300.27863	223.8816292	248.3693924	0.3851256794	-1318.161437	-3	-0.02540172269	-0.3040320531	118	8.802390474	-1765.078536	40185.84064	0.8
7175.035096	65300.30403	223.654676	248.0394191	0.3845834603	-1316.410182	-3	-0.0257062938	-0.3297383469	119	8.871381972	-1786.689971	40164.24553	0.8
7153.094927	65300.32974	223.4276611	247.7096617	0.3840417051	-1314.660074	-3	-0.02600887695	-0.3557472239	120	8.940281811	-1808.173744	40142.77827	0.8
7131.183926	65300.35575	223.2005845	247.3801199	0.3835004128	-1312.911109	-3	-0.026309466	-0.3820566899	121	9.00909005	-1829.529319	40121.4394	0.8
7109.302074	65300.38206	222.9734462	247.050793	0.3829595823	-1311.163285	-3	-0.02660805476	-0.4086647446	122	9.07780675	-1850.756162	40100.22946	0.8
7087.449352	65300.40866	222.7462463	246.7216808	0.3824192128	-1309.4166	-3	-0.02690463702	-0.4355693816	123	9.146431971	-1871.853733	40079.14898	0.8
7065.625742	65300.43557	222.5189849	246.3927829	0.3818793031	-1307.671052	-3	-0.02719920654	-0.4627685882	124	9.214965771	-1892.821492	40058.19851	0.8
7043.831225	65300.46277	222.2916619	246.0640986	0.3813398523	-1305.926639	-3	-0.02749175707	-0.4902603453	125	9.283408211	-1913.658896	40037.37858	0.8
7022.065781	65300.49026	222.0642774	245.7356277	0.3808008593	-1304.183358	-3	-0.02778228231	-0.5180426276	126	9.351759349	-1934.365399	40016.68974	0.8
7000.329391	65300.51804	221.8368315	245.4073697	0.3802623233	-1302.441207	-3	-0.02807077595	-0.5461134035	127	9.420019246	-1954.940454	39996.13253	0.8
6978.622038	65300.54611	221.6093241	245.0793242	0.3797242432	-1300.700183	-3	-0.02835723163	-0.5744706352	128	9.488187959	-1975.38351	39975.70751	0.8
6956.943702	65300.57447	221.3817554	244.7514907	0.379186618	-1298.960285	-3	-0.02864164299	-0.6031122781	129	9.556265549	-1995.694016	39955.41522	0.8
6935.294364	65300.60311	221.1541253	244.4238688	0.3786494467	-1297.22151	-3	-0.02892400363	-0.6320362818	130	9.624252075	-2015.871416	39935.25622	0.8
6913.674005	65300.63204	220.9264339	244.0964582	0.3781127284	-1295.483856	-3	-0.0292043071	-0.6612405889	131	9.692147594	-2035.915154	39915.23106	0.8
6892.082607	65300.66124	220.6986812	243.7692582	0.377576462	-1293.74732	-3	-0.02948254696	-0.6907231358	132	9.759952166	-2055.824671	39895.34031	0.8
6870.520152	65300.69072	220.4708673	243.4422687	0.3770406467	-1292.011901	-3	-0.02975871672	-0.7204818526	133	9.827665848	-2075.599403	39875.58452	0.8
